Time [sec],Acceleration [cm/sec2]
0,0
0.01,-0.08419
0.02,-0.16826
0.03,-0.16806
0.04,-0.16784
0.05,-0.16761
0.06,-0.16735
0.07,-0.16707
0.08,-0.16678
0.09,-0.16646
0.1,-0.16613
0.11,-0.16578
0.12,-0.16542
0.13,-0.16504
0.14,-0.16464
0.15,-0.16423
0.16,-0.1638
0.17,-0.16336
0.18,-0.1629
0.19,-0.16243
0.2,-0.16194
0.21,-0.16144
0.22,-0.16093
0.23,-0.1604
0.24,-0.15986
0.25,-0.15931
0.26,-0.15874
0.27,-0.15817
0.28,-0.15758
0.29,-0.15697
0.3,-0.15636
0.31,-0.15573
0.32,-0.15509
0.33,-0.15443
0.34,-0.15377
0.35,-0.15308
0.36,-0.15239
0.37,-0.15169
0.38,-0.15097
0.39,-0.15023
0.4,-0.14949
0.41,-0.14873
0.42,-0.14795
0.43,-0.14716
0.44,-0.14636
0.45,-0.14554
0.46,-0.1447
0.47,-0.14385
0.48,-0.14297
0.49,-0.14208
0.5,-0.14118
0.51,-0.14025
0.52,-0.1393
0.53,-0.13834
0.54,-0.13736
0.55,-0.13634
0.56,-0.1353
0.57,-0.13425
0.58,-0.13318
0.59,-0.13208
0.6,-0.13094
0.61,-0.12979
0.62,-0.12861
0.63,-0.12738
0.64,-0.12612
0.65,-0.12483
0.66,-0.12355
0.67,-0.12225
0.68,-0.12089
0.69,-0.11946
0.7,-0.11799
0.71,-0.1165
0.72,-0.11497
0.73,-0.11337
0.74,-0.11174
0.75,-0.11014
0.76,-0.10855
0.77,-0.10683
0.78,-0.1049
0.79,-0.10303
0.8,-0.10134
0.81,-0.09954
0.82,-0.09741
0.83,-0.09518
0.84,-0.09306
0.85,-0.09103
0.86,-0.08899
0.87,-0.08684
0.88,-0.08446
0.89,-0.08184
0.9,-0.07927
0.91,-0.077
0.92,-0.07473
0.93,-0.07201
0.94,-0.06902
0.95,-0.06602
0.96,-0.06309
0.97,-0.06029
0.98,-0.05746
0.99,-0.05443
1,-0.05132
1.01,-0.04822
1.02,-0.04493
1.03,-0.04128
1.04,-0.03759
1.05,-0.03417
1.06,-0.03071
1.07,-0.02706
1.08,-0.02345
1.09,-0.01971
1.1,-0.01565
1.11,-0.01144
1.12,-0.00729
1.13,-0.00332
1.14,0.00095
1.15,0.00614
1.16,0.01149
1.17,0.01573
1.18,0.01943
1.19,0.0242
1.2,0.02978
1.21,0.03479
1.22,0.03952
1.23,0.0448
1.24,0.05
1.25,0.05502
1.26,0.06075
1.27,0.06679
1.28,0.07247
1.29,0.07837
1.3,0.08453
1.31,0.08995
1.32,0.09503
1.33,0.10144
1.34,0.10868
1.35,0.11466
1.36,0.11972
1.37,0.12581
1.38,0.13287
1.39,0.13989
1.4,0.14711
1.41,0.15449
1.42,0.16097
1.43,0.16699
1.44,0.17435
1.45,0.18298
1.46,0.19105
1.47,0.19816
1.48,0.20699
1.49,0.21959
1.5,0.23099
1.51,0.23511
1.52,0.23722
1.53,0.24529
1.54,0.25498
1.55,0.26057
1.56,0.26701
1.57,0.27815
1.58,0.28849
1.59,0.29311
1.6,0.29676
1.61,0.30712
1.62,0.32138
1.63,0.33076
1.64,0.33572
1.65,0.34229
1.66,0.35181
1.67,0.3633
1.68,0.37513
1.69,0.38439
1.7,0.39024
1.71,0.39426
1.72,0.40042
1.73,0.41336
1.74,0.42647
1.75,0.42746
1.76,0.4405
1.77,0.49815
1.78,0.44326
1.79,-0.04508
1.8,-0.7605
1.81,-0.77578
1.82,0.0981
1.83,0.71322
1.84,0.55083
1.85,0.37849
1.86,0.47453
1.87,0.48878
1.88,0.46516
1.89,0.4965
1.9,0.50152
1.91,0.51172
1.92,0.52304
1.93,0.51888
1.94,0.53663
1.95,0.54819
1.96,0.54765
1.97,0.56009
1.98,0.57134
1.99,0.583
2,0.59592
2.01,0.5979
2.02,0.59681
2.03,0.60011
2.04,0.61163
2.05,0.62878
2.06,0.63765
2.07,0.63994
2.08,0.64488
2.09,0.65167
2.1,0.66165
2.11,0.67214
2.12,0.67417
2.13,0.67334
2.14,0.68134
2.15,0.69503
2.16,0.70669
2.17,0.71095
2.18,0.70347
2.19,0.69403
2.2,0.69899
2.21,0.71693
2.22,0.7333
2.23,0.74196
2.24,0.74819
2.25,0.75233
2.26,0.74834
2.27,0.7409
2.28,0.73957
2.29,0.74654
2.3,0.76125
2.31,0.77398
2.32,0.76933
2.33,0.75731
2.34,0.7657
2.35,0.78295
2.36,0.765
2.37,0.76159
2.38,0.87038
2.39,0.73606
2.4,-0.40453
2.41,-2.0598
2.42,-2.06947
2.43,-0.04655
2.44,1.34121
2.45,0.94162
2.46,0.52075
2.47,0.71333
2.48,0.73817
2.49,0.67332
2.5,0.71631
2.51,0.70414
2.52,0.70939
2.53,0.71181
2.54,0.66371
2.55,0.66201
2.56,0.67709
2.57,0.67974
2.58,0.68992
2.59,0.68241
2.6,0.67022
2.61,0.65875
2.62,0.64206
2.63,0.64183
2.64,0.64089
2.65,0.62626
2.66,0.62326
2.67,0.63194
2.68,0.63372
2.69,0.62182
2.7,0.60287
2.71,0.59105
2.72,0.58473
2.73,0.57114
2.74,0.55198
2.75,0.5378
2.76,0.53359
2.77,0.53327
2.78,0.52084
2.79,0.53383
2.8,0.56706
2.81,0.58035
2.82,0.58327
2.83,0.58211
2.84,0.59337
2.85,0.60079
2.86,0.58942
2.87,0.57677
2.88,0.5784
2.89,0.58457
2.9,0.58661
2.91,0.59394
2.92,0.60798
2.93,0.61089
2.94,0.60335
2.95,0.60799
2.96,0.62022
2.97,0.61765
2.98,0.60977
2.99,0.6164
3,0.62472
3.01,0.61181
3.02,0.59201
3.03,0.60191
3.04,0.63219
3.05,0.64368
3.06,0.64335
3.07,0.64943
3.08,0.64679
3.09,0.63753
3.1,0.63755
3.11,0.64048
3.12,0.64476
3.13,0.65576
3.14,0.66416
3.15,0.66413
3.16,0.66427
3.17,0.67015
3.18,0.67531
3.19,0.67458
3.2,0.67473
3.21,0.67837
3.22,0.67785
3.23,0.67631
3.24,0.68
3.25,0.67873
3.26,0.67286
3.27,0.67812
3.28,0.68636
3.29,0.68227
3.3,0.67908
3.31,0.69172
3.32,0.71135
3.33,0.71877
3.34,0.70543
3.35,0.68809
3.36,0.68829
3.37,0.697
3.38,0.69757
3.39,0.69865
3.4,0.70267
3.41,0.69699
3.42,0.69001
3.43,0.69231
3.44,0.69394
3.45,0.69578
3.46,0.70812
3.47,0.72317
3.48,0.72522
3.49,0.71513
3.5,0.71069
3.51,0.71526
3.52,0.71574
3.53,0.71955
3.54,0.73299
3.55,0.73668
3.56,0.73206
3.57,0.73515
3.58,0.7344
3.59,0.72574
3.6,0.72639
3.61,0.73338
3.62,0.73867
3.63,0.75182
3.64,0.76372
3.65,0.75047
3.66,0.72628
3.67,0.72489
3.68,0.7395
3.69,0.74129
3.7,0.7329
3.71,0.73657
3.72,0.75009
3.73,0.74956
3.74,0.7361
3.75,0.73965
3.76,0.75992
3.77,0.76492
3.78,0.75557
3.79,0.75821
3.8,0.77263
3.81,0.78286
3.82,0.78307
3.83,0.77722
3.84,0.77851
3.85,0.7902
3.86,0.7934
3.87,0.7815
3.88,0.77253
3.89,0.77628
3.9,0.78451
3.91,0.7879
3.92,0.7877
3.93,0.79236
3.94,0.79734
3.95,0.78793
3.96,0.77654
3.97,0.79077
3.98,0.81381
3.99,0.80736
4,0.78541
4.01,0.78215
4.02,0.789
4.03,0.79292
4.04,0.80482
4.05,0.81782
4.06,0.81122
4.07,0.79384
4.08,0.7908
4.09,0.79919
4.1,0.79573
4.11,0.78226
4.12,0.77921
4.13,0.78838
4.14,0.8016
4.15,0.80924
4.16,0.79945
4.17,0.7871
4.18,0.79836
4.19,0.82062
4.2,0.82449
4.21,0.80855
4.22,0.7954
4.23,0.80788
4.24,0.83723
4.25,0.84184
4.26,0.81432
4.27,0.80299
4.28,0.82139
4.29,0.82659
4.3,0.81424
4.31,0.81413
4.32,0.82009
4.33,0.82109
4.34,0.82115
4.35,0.81158
4.36,0.79501
4.37,0.79096
4.38,0.80186
4.39,0.81528
4.4,0.82152
4.41,0.81822
4.42,0.80585
4.43,0.78651
4.44,0.77424
4.45,0.78415
4.46,0.80924
4.47,0.82685
4.48,0.82124
4.49,0.80169
4.5,0.79654
4.51,0.8138
4.52,0.8276
4.53,0.82223
4.54,0.81459
4.55,0.81586
4.56,0.81691
4.57,0.81706
4.58,0.81739
4.59,0.80912
4.6,0.80278
4.61,0.8156
4.62,0.83176
4.63,0.8286
4.64,0.81139
4.65,0.79493
4.66,0.78676
4.67,0.79327
4.68,0.81044
4.69,0.8131
4.7,0.79276
4.71,0.78143
4.72,0.79077
4.73,0.79106
4.74,0.78119
4.75,0.785
4.76,0.79101
4.77,0.78447
4.78,0.77992
4.79,0.77928
4.8,0.77675
4.81,0.78205
4.82,0.78455
4.83,0.76956
4.84,0.76962
4.85,0.8092
4.86,0.84061
4.87,0.81712
4.88,0.77565
4.89,0.76929
4.9,0.78001
4.91,0.7744
4.92,0.76451
4.93,0.76384
4.94,0.76485
4.95,0.76338
4.96,0.75669
4.97,0.74283
4.98,0.72587
4.99,0.70175
5,0.66372
5.01,0.61875
5.02,0.5682
5.03,0.49472
5.04,0.38491
5.05,0.24738
5.06,0.12105
5.07,0.06704
5.08,0.12628
5.09,0.29038
5.1,0.53707
5.11,0.91904
5.12,1.56739
5.13,2.4609
5.14,3.22962
5.15,3.42354
5.16,2.97434
5.17,2.1697
5.18,1.17922
5.19,-0.18875
5.2,-2.18411
5.21,-4.47698
5.22,-5.79638
5.23,-4.87892
5.24,-2.18498
5.25,0.39116
5.26,1.72291
5.27,1.89476
5.28,1.0107
5.29,-0.86251
5.3,-3.75767
5.31,-8.28953
5.32,-14.19453
5.33,-19.43857
5.34,-22.50891
5.35,-22.75545
5.36,-18.4783
5.37,-10.44364
5.38,-4.8705
5.39,-4.59441
5.4,-3.32461
5.41,1.80661
5.42,2.94612
5.43,-3.80453
5.44,-11.36902
5.45,-16.18306
5.46,-21.91961
5.47,-26.12212
5.48,-21.68853
5.49,-10.65283
5.5,-1.01465
5.51,6.12099
5.52,14.80493
5.53,23.55362
5.54,24.38516
5.55,12.35299
5.56,-6.98853
5.57,-20.52223
5.58,-19.02289
5.59,-7.66323
5.6,-1.93941
5.61,-7.80784
5.62,-12.90439
5.63,-6.78807
5.64,2.11084
5.65,2.37217
5.66,-2.39094
5.67,-4.50791
5.68,-5.70767
5.69,-7.04272
5.7,-1.98445
5.71,6.94686
5.72,2.83676
5.73,-19.48423
5.74,-39.99403
5.75,-41.26029
5.76,-32.66823
5.77,-30.36351
5.78,-30.58727
5.79,-23.29986
5.8,-14.11518
5.81,-11.85153
5.82,-12.2598
5.83,-11.89992
5.84,-19.37604
5.85,-33.56289
5.86,-32.9025
5.87,-11.31226
5.88,4.6693
5.89,-1.43449
5.9,-15.19384
5.91,-24.91562
5.92,-32.33558
5.93,-33.34668
5.94,-24.77499
5.95,-14.94835
5.96,-5.74798
5.97,12.69552
5.98,36.8177
5.99,43.00054
6,19.64496
6.01,-11.23461
6.02,-22.52347
6.03,-19.45767
6.04,-23.18786
6.05,-31.42777
6.06,-28.80212
6.07,-17.9694
6.08,-8.42638
6.09,2.87254
6.1,18.06312
6.11,27.72949
6.12,24.9329
6.13,15.91704
6.14,9.99805
6.15,6.6729
6.16,1.31559
6.17,-5.0948
6.18,-9.07242
6.19,-7.38776
6.2,0.93576
6.21,10.38296
6.22,16.4093
6.23,22.2107
6.24,29.38616
6.25,30.84834
6.26,18.80486
6.27,-2.67816
6.28,-20.49547
6.29,-30.4608
6.3,-37.34615
6.31,-36.75851
6.32,-19.78659
6.33,5.0242
6.34,17.87345
6.35,17.19046
6.36,17.92793
6.37,18.4363
6.38,1.98916
6.39,-28.1792
6.4,-49.37596
6.41,-50.346
6.42,-39.76426
6.43,-31.17377
6.44,-26.80665
6.45,-18.45699
6.46,-6.0747
6.47,0.73873
6.48,1.82462
6.49,4.92448
6.5,8.6742
6.51,7.2882
6.52,5.58813
6.53,11.88225
6.54,20.65232
6.55,20.50531
6.56,16.32146
6.57,22.00186
6.58,34.06089
6.59,37.27027
6.6,33.79495
6.61,38.027
6.62,45.13488
6.63,37.3985
6.64,17.68949
6.65,4.74431
6.66,2.72568
6.67,1.22832
6.68,-3.69511
6.69,-7.56952
6.7,-9.58283
6.71,-11.75588
6.72,-10.72987
6.73,-3.38061
6.74,4.46697
6.75,6.19632
6.76,4.52217
6.77,4.341
6.78,3.54896
6.79,-1.32895
6.8,-8.01515
6.81,-12.30995
6.82,-12.3859
6.83,-7.17561
6.84,2.08611
6.85,8.39238
6.86,6.69889
6.87,2.82058
6.88,2.55027
6.89,0.44642
6.9,-7.09693
6.91,-12.21354
6.92,-11.14558
6.93,-12.79375
6.94,-21.92733
6.95,-29.06684
6.96,-25.89446
6.97,-17.89016
6.98,-12.87643
6.99,-9.64017
7,-6.37676
7.01,-5.54431
7.02,-4.11698
7.03,4.66178
7.04,18.1952
7.05,27.25613
7.06,28.88448
7.07,26.32233
7.08,21.2486
7.09,14.9192
7.1,10.9583
7.11,8.90952
7.12,3.4314
7.13,-4.39548
7.14,-6.3861
7.15,-0.99095
7.16,4.41056
7.17,5.67849
7.18,4.88935
7.19,3.14229
7.2,0.82489
7.21,1.39911
7.22,6.98747
7.23,13.29066
7.24,14.65017
7.25,12.50908
7.26,11.83109
7.27,11.05254
7.28,5.90578
7.29,-0.61189
7.3,-2.18562
7.31,1.2274
7.32,2.8761
7.33,-2.40157
7.34,-10.25761
7.35,-12.76084
7.36,-11.02747
7.37,-13.12676
7.38,-21.26662
7.39,-28.54602
7.4,-30.03412
7.41,-29.85383
7.42,-29.22681
7.43,-18.99903
7.44,3.70556
7.45,26.14154
7.46,37.40357
7.47,41.1897
7.48,45.02502
7.49,49.1044
7.5,50.66729
7.51,48.52027
7.52,40.84836
7.53,28.73739
7.54,19.36775
7.55,17.44713
7.56,19.05746
7.57,17.52958
7.58,10.81471
7.59,4.16391
7.6,5.42772
7.61,14.65536
7.62,22.96153
7.63,23.08484
7.64,15.45706
7.65,4.26278
7.66,-9.08706
7.67,-25.15176
7.68,-39.54395
7.69,-46.8834
7.7,-49.633
7.71,-50.79858
7.72,-47.25897
7.73,-39.74173
7.74,-34.47324
7.75,-29.88727
7.76,-18.12308
7.77,-2.40456
7.78,5.87402
7.79,8.57889
7.8,14.95175
7.81,18.68066
7.82,10.95147
7.83,2.52728
7.84,3.35314
7.85,2.56819
7.86,-9.00326
7.87,-20.52036
7.88,-20.05646
7.89,-13.57227
7.9,-11.82598
7.91,-10.47437
7.92,-0.25361
7.93,13.68451
7.94,21.18356
7.95,22.35067
7.96,19.86975
7.97,12.18939
7.98,1.91583
7.99,-3.2368
8,-2.14508
8.01,-1.9732
8.02,-5.65023
8.03,-8.23327
8.04,-6.992
8.05,-4.42846
8.06,-1.35958
8.07,3.55219
8.08,8.84311
8.09,12.77375
8.1,16.41331
8.11,17.60378
8.12,10.54607
8.13,-2.75733
8.14,-10.18637
8.15,-4.16112
8.16,8.09953
8.17,14.16995
8.18,11.52262
8.19,8.66989
8.2,12.63852
8.21,17.91669
8.22,14.00066
8.23,2.81175
8.24,-2.39627
8.25,4.7973
8.26,15.3839
8.27,19.17494
8.28,20.86768
8.29,25.76267
8.3,22.58159
8.31,4.78382
8.32,-12.62983
8.33,-16.28806
8.34,-10.63161
8.35,-3.66233
8.36,4.06119
8.37,10.38793
8.38,7.53683
8.39,-0.24887
8.4,2.7947
8.41,11.88699
8.42,6.26344
8.43,-9.21217
8.44,-10.56342
8.45,3.30979
8.46,12.14815
8.47,8.04243
8.48,1.65694
8.49,-0.79118
8.5,-4.02732
8.51,-5.55815
8.52,2.60134
8.53,14.21504
8.54,17.62262
8.55,15.6517
8.56,17.57361
8.57,24.46727
8.58,29.74986
8.59,25.80003
8.6,12.62716
8.61,-0.50882
8.62,-7.23731
8.63,-10.61699
8.64,-12.60307
8.65,-5.9164
8.66,14.5664
8.67,38.07719
8.68,48.90689
8.69,46.79741
8.7,42.34468
8.71,39.10988
8.72,34.75477
8.73,31.95354
8.74,35.47466
8.75,43.93334
8.76,49.75882
8.77,46.14237
8.78,37.1198
8.79,34.82543
8.8,40.85624
8.81,43.44518
8.82,37.78829
8.83,35.428
8.84,45.6422
8.85,56.21263
8.86,51.0834
8.87,39.51268
8.88,38.53442
8.89,41.03506
8.9,32.71045
8.91,21.87653
8.92,26.52607
8.93,41.65138
8.94,42.04835
8.95,22.57938
8.96,6.09123
8.97,1.95439
8.98,-3.27341
8.99,-12.93856
9,-15.26548
9.01,-4.00034
9.02,14.12935
9.03,27.38848
9.04,32.28263
9.05,33.49796
9.06,31.76594
9.07,25.11075
9.08,15.04836
9.09,-0.24155
9.1,-26.55461
9.11,-57.70541
9.12,-73.50777
9.13,-65.88691
9.14,-50.93078
9.15,-44.10806
9.16,-44.46469
9.17,-47.93399
9.18,-53.40498
9.19,-55.22646
9.2,-45.36576
9.21,-25.7607
9.22,-10.32682
9.23,-5.64348
9.24,-0.90201
9.25,10.76994
9.26,18.88017
9.27,12.14799
9.28,-4.98724
9.29,-15.55547
9.3,-10.67372
9.31,-3.65867
9.32,-8.66976
9.33,-14.78046
9.34,-6.54869
9.35,3.0893
9.36,-8.67395
9.37,-35.58713
9.38,-50.87447
9.39,-46.03686
9.4,-39.63544
9.41,-48.02884
9.42,-61.7599
9.43,-62.46119
9.44,-54.17286
9.45,-57.51661
9.46,-74.48499
9.47,-83.28332
9.48,-76.11745
9.49,-72.51152
9.5,-83.95437
9.51,-100.07152
9.52,-110.70051
9.53,-114.57015
9.54,-117.43289
9.55,-122.59651
9.56,-115.83084
9.57,-87.96168
9.58,-61.10593
9.59,-55.44842
9.6,-59.86808
9.61,-59.88587
9.62,-60.64819
9.63,-71.23595
9.64,-86.58948
9.65,-92.67943
9.66,-86.41551
9.67,-77.88949
9.68,-68.19795
9.69,-45.10574
9.7,-8.47535
9.71,22.81564
9.72,38.05103
9.73,46.995
9.74,60.75039
9.75,80.96876
9.76,106.03563
9.77,132.93391
9.78,155.31236
9.79,164.21765
9.8,157.1793
9.81,147.63001
9.82,149.45082
9.83,157.69106
9.84,159.82611
9.85,149.75839
9.86,127.09222
9.87,100.48593
9.88,82.85897
9.89,76.14884
9.9,73.37107
9.91,70.94707
9.92,70.56494
9.93,73.38528
9.94,76.74857
9.95,81.33116
9.96,93.36172
9.97,110.65331
9.98,121.61431
9.99,120.66458
10,113.00551
10.01,109.9039
10.02,116.22482
10.03,120.64608
10.04,113.78894
10.05,104.44015
10.06,102.11086
10.07,104.13773
10.08,107.6961
10.09,115.17734
10.1,124.0216
10.11,121.696
10.12,93.75079
10.13,36.3365
10.14,-35.40595
10.15,-92.81018
10.16,-117.97587
10.17,-120.63448
10.18,-122.094
10.19,-133.28427
10.2,-153.73584
10.21,-176.82236
10.22,-195.06219
10.23,-205.19723
10.24,-203.38615
10.25,-186.12827
10.26,-162.55313
10.27,-148.37198
10.28,-145.34427
10.29,-139.51124
10.3,-116.63338
10.31,-76.70103
10.32,-38.53004
10.33,-22.02328
10.34,-21.20103
10.35,-12.61717
10.36,6.87981
10.37,16.61837
10.38,7.15189
10.39,-9.55859
10.4,-25.84237
10.41,-49.12862
10.42,-82.43249
10.43,-112.44752
10.44,-127.90846
10.45,-138.17059
10.46,-159.69217
10.47,-192.65746
10.48,-224.63037
10.49,-248.58646
10.5,-265.97346
10.51,-282.15778
10.52,-302.91465
10.53,-325.097
10.54,-340.04294
10.55,-350.2618
10.56,-361.7166
10.57,-368.67347
10.58,-366.72786
10.59,-360.63902
10.6,-350.85985
10.61,-332.57806
10.62,-306.21294
10.63,-278.19625
10.64,-252.08818
10.65,-218.11213
10.66,-156.99966
10.67,-64.60077
10.68,29.87765
10.69,84.90694
10.7,91.36663
10.71,80.94912
10.72,88.21031
10.73,121.77174
10.74,164.0934
10.75,194.2199
10.76,227.39018
10.77,302.76644
10.78,416.67561
10.79,527.50525
10.8,621.57266
10.81,708.8594
10.82,778.22052
10.83,803.8256
10.84,775.88206
10.85,698.79398
10.86,565.5397
10.87,378.60608
10.88,209.82376
10.89,161.42764
10.9,236.97889
10.91,324.63165
10.92,329.03171
10.93,264.30894
10.94,205.28674
10.95,196.62656
10.96,232.55091
10.97,280.11032
10.98,297.30141
10.99,269.22449
11,233.23905
11.01,232.899
11.02,263.5201
11.03,289.52506
11.04,287.42955
11.05,258.67139
11.06,220.29408
11.07,182.45914
11.08,138.68056
11.09,92.19729
11.1,65.75916
11.11,61.73722
11.12,48.75272
11.13,10.41264
11.14,-31.16291
11.15,-55.51725
11.16,-72.1683
11.17,-100.22035
11.18,-145.97451
11.19,-203.44338
11.2,-259.6472
11.21,-302.86473
11.22,-337.55277
11.23,-380.71125
11.24,-432.37468
11.25,-465.52866
11.26,-462.16561
11.27,-444.06549
11.28,-444.62622
11.29,-462.23165
11.3,-465.56081
11.31,-435.95746
11.32,-386.31811
11.33,-343.23205
11.34,-318.38112
11.35,-297.54384
11.36,-260.10323
11.37,-203.22765
11.38,-137.75799
11.39,-70.65459
11.4,-1.84833
11.41,65.53502
11.42,115.13852
11.43,128.89921
11.44,113.25009
11.45,93.17907
11.46,82.88955
11.47,83.99455
11.48,95.36794
11.49,106.85867
11.5,102.91194
11.51,80.86066
11.52,54.83089
11.53,44.99251
11.54,65.68135
11.55,110.24002
11.56,149.02615
11.57,159.41669
11.58,145.39754
11.59,115.26398
11.6,69.26137
11.61,14.6298
11.62,-37.34665
11.63,-81.85436
11.64,-112.90927
11.65,-127.03568
11.66,-137.58362
11.67,-160.41685
11.68,-191.19512
11.69,-216.7829
11.7,-233.25775
11.71,-238.8486
11.72,-230.08464
11.73,-211.85719
11.74,-195.66534
11.75,-185.54412
11.76,-171.46248
11.77,-141.8377
11.78,-101.58219
11.79,-65.41576
11.8,-37.22729
11.81,-12.59336
11.82,7.51387
11.83,20.96543
11.84,29.87389
11.85,31.1283
11.86,19.26361
11.87,7.33411
11.88,19.02114
11.89,48.74001
11.9,60.8685
11.91,40.34395
11.92,11.92249
11.93,1.55565
11.94,5.91239
11.95,3.62012
11.96,-15.80718
11.97,-35.00635
11.98,-29.55652
11.99,-6.52955
12,2.03981
12.01,-15.39704
12.02,-36.89756
12.03,-40.09268
12.04,-30.14731
12.05,-27.26379
12.06,-34.65275
12.07,-36.73004
12.08,-26.69513
12.09,-14.20427
12.1,-8.18258
12.11,-8.63185
12.12,-11.72644
12.13,-13.04507
12.14,-6.18908
12.15,12.44237
12.16,32.87693
12.17,41.4123
12.18,45.63055
12.19,64.51277
12.2,93.97116
12.21,111.95392
12.22,113.06515
12.23,110.91752
12.24,112.91412
12.25,113.83919
12.26,108.16415
12.27,96.13743
12.28,83.76693
12.29,78.839
12.3,80.42699
12.31,79.41261
12.32,73.5417
12.33,70.08854
12.34,73.74977
12.35,82.49828
12.36,92.721
12.37,101.9727
12.38,107.77737
12.39,105.85418
12.4,91.93707
12.41,69.76187
12.42,53.67209
12.43,51.89729
12.44,52.45696
12.45,40.87134
12.46,22.29546
12.47,11.2441
12.48,9.72481
12.49,6.66439
12.5,-4.1616
12.51,-14.03331
12.52,-15.50777
12.53,-17.86817
12.54,-29.24056
12.55,-39.65968
12.56,-39.37363
12.57,-35.9047
12.58,-42.43373
12.59,-60.81968
12.6,-79.17281
12.61,-86.46092
12.62,-88.55736
12.63,-98.16887
12.64,-112.04177
12.65,-117.18711
12.66,-113.71409
12.67,-111.85981
12.68,-115.66029
12.69,-123.21872
12.7,-131.54178
12.71,-135.85981
12.72,-133.38344
12.73,-126.51941
12.74,-118.31184
12.75,-108.5447
12.76,-96.47354
12.77,-84.3213
12.78,-74.40345
12.79,-64.42593
12.8,-50.31531
12.81,-32.87905
12.82,-18.71135
12.83,-13.50592
12.84,-12.80568
12.85,-3.54723
12.86,18.91109
12.87,42.94156
12.88,57.5415
12.89,66.27351
12.9,77.33078
12.91,91.24255
12.92,104.0821
12.93,115.08114
12.94,128.07353
12.95,145.60906
12.96,161.45032
12.97,166.85788
12.98,165.61073
12.99,169.93429
13,181.20147
13.01,188.08247
13.02,184.62076
13.03,178.182
13.04,176.06163
13.05,176.44721
13.06,178.55435
13.07,186.93661
13.08,197.15866
13.09,192.04133
13.1,163.81763
13.11,128.31813
13.12,102.98888
13.13,82.79051
13.14,56.31632
13.15,30.80066
13.16,20.14525
13.17,24.05005
13.18,32.91613
13.19,36.76626
13.2,26.79952
13.21,3.08422
13.22,-21.75269
13.23,-32.01667
13.24,-22.1346
13.25,-5.00912
13.26,0.43706
13.27,-4.4075
13.28,-1.30299
13.29,14.47455
13.3,27.78816
