Time [sec],Acceleration [cm/sec2]
0,0
0.005,1.39353
0.01,2.78252
0.015,2.77551
0.02,2.76823
0.025,2.76066
0.03,2.75279
0.035,2.74462
0.04,2.73614
0.045,2.72733
0.05,2.7182
0.055,2.70874
0.06,2.69893
0.065,2.68876
0.07,2.67824
0.075,2.66735
0.08,2.65608
0.085,2.64442
0.09,2.63237
0.095,2.61992
0.1,2.60706
0.105,2.59379
0.11,2.58008
0.115,2.56595
0.12,2.55138
0.125,2.53636
0.13,2.52088
0.135,2.50493
0.14,2.48851
0.145,2.47161
0.15,2.45424
0.155,2.43637
0.16,2.41801
0.165,2.39914
0.17,2.37975
0.175,2.35984
0.18,2.33939
0.185,2.31842
0.19,2.29691
0.195,2.27487
0.2,2.25229
0.205,2.22917
0.21,2.20549
0.215,2.18126
0.22,2.15644
0.225,2.13104
0.23,2.10506
0.235,2.07849
0.24,2.05133
0.245,2.02359
0.25,1.99524
0.255,1.96626
0.26,1.93659
0.265,1.90624
0.27,1.87526
0.275,1.84373
0.28,1.81171
0.285,1.77917
0.29,1.74601
0.295,1.71216
0.3,1.67758
0.305,1.64237
0.31,1.60663
0.315,1.57049
0.32,1.53396
0.325,1.49699
0.33,1.45945
0.335,1.42127
0.34,1.38248
0.345,1.34312
0.35,1.3032
0.355,1.26257
0.36,1.22104
0.365,1.1786
0.37,1.13551
0.375,1.09217
0.38,1.04884
0.385,1.00541
0.39,0.96148
0.395,0.9167
0.4,0.87097
0.405,0.82446
0.41,0.77748
0.415,0.73041
0.42,0.68352
0.425,0.6369
0.43,0.59028
0.435,0.54313
0.44,0.49492
0.445,0.44546
0.45,0.39501
0.455,0.34385
0.46,0.29169
0.465,0.23774
0.47,0.18149
0.475,0.12381
0.48,0.06694
0.485,0.01311
0.49,-0.03739
0.495,-0.08674
0.5,-0.13782
0.505,-0.19159
0.51,-0.24648
0.515,-0.30027
0.52,-0.3524
0.525,-0.40426
0.53,-0.4574
0.535,-0.51175
0.54,-0.56537
0.545,-0.61594
0.55,-0.66278
0.555,-0.70806
0.56,-0.75626
0.565,-0.81178
0.57,-0.87598
0.575,-0.9458
0.58,-1.01505
0.585,-1.07754
0.59,-1.13024
0.595,-1.17487
0.6,-1.21682
0.605,-1.26191
0.61,-1.31286
0.615,-1.3684
0.62,-1.425
0.625,-1.47963
0.63,-1.53122
0.635,-1.58069
0.64,-1.62984
0.645,-1.68018
0.65,-1.73192
0.655,-1.78375
0.66,-1.83337
0.665,-1.87878
0.67,-1.92
0.675,-1.96048
0.68,-2.00696
0.685,-2.06703
0.69,-2.14469
0.695,-2.23621
0.7,-2.3293
0.705,-2.40753
0.71,-2.45787
0.715,-2.47717
0.72,-2.4739
0.725,-2.46483
0.73,-2.46823
0.735,-2.49669
0.74,-2.55265
0.745,-2.62814
0.75,-2.70765
0.755,-2.77296
0.76,-2.81017
0.765,-2.81759
0.77,-2.80879
0.775,-2.80573
0.78,-2.82499
0.785,-2.8675
0.79,-2.91886
0.795,-2.95817
0.8,-2.9691
0.805,-2.94885
0.81,-2.91215
0.815,-2.88722
0.82,-2.9017
0.825,-2.96339
0.83,-3.04881
0.835,-3.11182
0.84,-3.11031
0.845,-3.03367
0.85,-2.91296
0.855,-2.80765
0.86,-2.77599
0.865,-2.84455
0.87,-2.99397
0.875,-3.16964
0.88,-3.30954
0.885,-3.37227
0.89,-3.35251
0.895,-3.28084
0.9,-3.20773
0.905,-3.17411
0.91,-3.18281
0.915,-3.19245
0.92,-3.14206
0.925,-2.99033
0.93,-2.74338
0.935,-2.45248
0.94,-2.18294
0.945,-1.97479
0.95,-1.82358
0.955,-1.69464
0.96,-1.55789
0.965,-1.41316
0.97,-1.28687
0.975,-1.20958
0.98,-1.20078
0.985,-1.27166
0.99,-1.42829
0.995,-1.65963
1,-1.92553
1.005,-2.17185
1.01,-2.36745
1.015,-2.52207
1.02,-2.65902
1.025,-2.77117
1.03,-2.81385
1.035,-2.74844
1.04,-2.59233
1.045,-2.4204
1.05,-2.31189
1.055,-2.29178
1.06,-2.32206
1.065,-2.34866
1.07,-2.35268
1.075,-2.34931
1.08,-2.33676
1.085,-2.26119
1.09,-2.05343
1.095,-1.71139
1.1,-1.34056
1.105,-1.09909
1.11,-1.09081
1.115,-1.30156
1.12,-1.62755
1.125,-1.95723
1.13,-2.23506
1.135,-2.47346
1.14,-2.72475
1.145,-3.03877
1.15,-3.42878
1.155,-3.86083
1.16,-4.26766
1.165,-4.57866
1.17,-4.75565
1.175,-4.81744
1.18,-4.83128
1.185,-4.87062
1.19,-4.96746
1.195,-5.09025
1.2,-5.15773
1.205,-5.08024
1.21,-4.80973
1.215,-4.37133
1.22,-3.85007
1.225,-3.33326
1.23,-2.85781
1.235,-2.42328
1.24,-2.05925
1.245,-1.85355
1.25,-1.88647
1.255,-2.14421
1.26,-2.52031
1.265,-2.90023
1.27,-3.22627
1.275,-3.48892
1.28,-3.69223
1.285,-3.83679
1.29,-3.89632
1.295,-3.78317
1.3,-3.3787
1.305,-2.66772
1.31,-1.8524
1.315,-1.26991
1.32,-1.13252
1.325,-1.32672
1.33,-1.46975
1.335,-1.17721
1.34,-0.32178
1.345,0.89699
1.35,2.09289
1.355,2.92765
1.36,3.27757
1.365,3.23494
1.37,2.98773
1.375,2.70596
1.38,2.51118
1.385,2.49525
1.39,2.7139
1.395,3.13716
1.4,3.618
1.405,3.94596
1.41,3.96713
1.415,3.67385
1.42,3.19185
1.425,2.68357
1.43,2.24826
1.435,1.8941
1.44,1.59672
1.445,1.37506
1.45,1.28912
1.455,1.34367
1.46,1.39956
1.465,1.21132
1.47,0.58921
1.475,-0.45113
1.48,-1.68098
1.485,-2.77717
1.49,-3.44969
1.495,-3.51287
1.5,-2.92623
1.505,-1.82077
1.51,-0.47051
1.515,0.81404
1.52,1.82198
1.525,2.52504
1.53,3.05406
1.535,3.57343
1.54,4.12077
1.545,4.5228
1.55,4.47498
1.555,3.7571
1.56,2.42722
1.565,0.82639
1.57,-0.62137
1.575,-1.65141
1.58,-2.25639
1.585,-2.60162
1.59,-2.8702
1.595,-3.15749
1.6,-3.4495
1.605,-3.67028
1.61,-3.77123
1.615,-3.79935
1.62,-3.8613
1.625,-3.98732
1.63,-4.01446
1.635,-3.74474
1.64,-3.06791
1.645,-2.09028
1.65,-1.13777
1.655,-0.50804
1.66,-0.30074
1.665,-0.41218
1.67,-0.65044
1.675,-0.85089
1.68,-0.91962
1.685,-0.81927
1.69,-0.55324
1.695,-0.18258
1.7,0.13928
1.705,0.16546
1.71,-0.36601
1.715,-1.58144
1.72,-3.3301
1.725,-5.17108
1.73,-6.5489
1.735,-7.07903
1.74,-6.76038
1.745,-5.96987
1.75,-5.24657
1.755,-5.00985
1.76,-5.38512
1.765,-6.22542
1.77,-7.27597
1.775,-8.33444
1.78,-9.29132
1.785,-10.06386
1.79,-10.53319
1.795,-10.57034
1.8,-10.14007
1.805,-9.39025
1.81,-8.6148
1.815,-8.05542
1.82,-7.67369
1.825,-7.12732
1.83,-6.04343
1.835,-4.37889
1.84,-2.52741
1.845,-1.05926
1.85,-0.32955
1.855,-0.28618
1.86,-0.58479
1.865,-0.85168
1.87,-0.87972
1.875,-0.67019
1.88,-0.36616
1.885,-0.15593
1.89,-0.19193
1.895,-0.53581
1.9,-1.13318
1.905,-1.83107
1.91,-2.4445
1.915,-2.84214
1.92,-2.98976
1.925,-2.92057
1.93,-2.67472
1.935,-2.27881
1.94,-1.7808
1.945,-1.28331
1.95,-0.9112
1.955,-0.71874
1.96,-0.62112
1.965,-0.43537
1.97,-0.02134
1.975,0.58416
1.98,1.15374
1.985,1.40481
1.99,1.19712
1.995,0.64267
2,0.03287
2.005,-0.36336
2.01,-0.46786
2.015,-0.40403
2.02,-0.36773
2.025,-0.47696
2.03,-0.70719
2.035,-0.9423
2.04,-1.09778
2.045,-1.22672
2.05,-1.51741
2.055,-2.17016
2.06,-3.25707
2.065,-4.69003
2.07,-6.30371
2.075,-7.94661
2.08,-9.49692
2.085,-10.82099
2.09,-11.74308
2.095,-12.07033
2.1,-11.66969
2.105,-10.56084
2.11,-8.96927
2.115,-7.27855
2.12,-5.86174
2.125,-4.86853
2.13,-4.11561
2.135,-3.18059
2.14,-1.66107
2.145,0.55443
2.15,3.18037
2.155,5.68124
2.16,7.58318
2.165,8.7197
2.17,9.23736
2.175,9.41506
2.18,9.49539
2.185,9.62903
2.19,9.87288
2.195,10.18006
2.2,10.40291
2.205,10.34338
2.21,9.85195
2.215,8.94019
2.22,7.82552
2.225,6.83838
2.23,6.2359
2.235,6.05658
2.24,6.10506
2.245,6.05628
2.25,5.626
2.255,4.74432
2.26,3.63467
2.265,2.71222
2.27,2.34212
2.275,2.62907
2.28,3.38919
2.285,4.30358
2.29,5.12119
2.295,5.76882
2.3,6.3239
2.305,6.90935
2.31,7.59333
2.315,8.33965
2.32,9.02522
2.325,9.51819
2.33,9.77567
2.335,9.89928
2.34,10.10375
2.345,10.59649
2.35,11.43398
2.355,12.46634
2.36,13.42072
2.365,14.04316
2.37,14.17851
2.375,13.7668
2.38,12.83105
2.385,11.50177
2.39,10.02189
2.395,8.65321
2.4,7.51314
2.405,6.48367
2.41,5.29708
2.415,3.73414
2.42,1.76318
2.425,-0.47532
2.43,-2.77686
2.435,-4.95879
2.44,-6.8788
2.445,-8.41353
2.45,-9.4444
2.455,-9.8899
2.46,-9.78337
2.465,-9.32296
2.47,-8.80016
2.475,-8.41657
2.48,-8.14123
2.485,-7.76581
2.49,-7.13192
2.495,-6.31653
2.5,-5.58834
2.505,-5.17411
2.51,-5.05298
2.515,-4.95227
2.52,-4.53394
2.525,-3.6219
2.53,-2.31131
2.535,-0.89411
2.54,0.33259
2.545,1.22143
2.55,1.78543
2.555,2.10038
2.56,2.21536
2.565,2.13396
2.57,1.84868
2.575,1.38932
2.58,0.85004
2.585,0.36453
2.59,0.03555
2.595,-0.12116
2.6,-0.16014
2.605,-0.1325
2.61,-0.03244
2.615,0.18145
2.62,0.51004
2.625,0.85434
2.63,1.03952
2.635,0.92963
2.64,0.55515
2.645,0.1352
2.65,-0.05032
2.655,0.15585
2.66,0.69804
2.665,1.37086
2.67,1.97178
2.675,2.42563
2.68,2.79576
2.685,3.18736
2.69,3.64007
2.695,4.10939
2.7,4.53717
2.705,4.92107
2.71,5.31466
2.715,5.78231
2.72,6.37037
2.725,7.10062
2.73,7.94335
2.735,8.77308
2.74,9.38592
2.745,9.62863
2.75,9.5487
2.755,9.39934
2.76,9.45656
2.765,9.80102
2.77,10.25407
2.775,10.50956
2.78,10.34323
2.785,9.74222
2.79,8.8814
2.795,8.00122
2.8,7.29593
2.805,6.86949
2.81,6.74718
2.815,6.91146
2.82,7.33074
2.825,7.95481
2.83,8.68667
2.835,9.37777
2.84,9.87517
2.845,10.09036
2.85,10.0336
2.855,9.78377
2.86,9.41146
2.865,8.9243
2.87,8.31148
2.875,7.65892
2.88,7.18592
2.885,7.12126
2.89,7.53204
2.895,8.2683
2.9,9.05024
2.905,9.60749
2.91,9.77952
2.915,9.54367
2.92,8.9923
2.925,8.29713
2.93,7.66799
2.935,7.28449
2.94,7.20687
2.945,7.32653
2.95,7.41235
2.955,7.23484
2.96,6.68607
2.965,5.82005
2.97,4.80211
2.975,3.82194
2.98,3.0381
2.985,2.56636
2.99,2.4732
2.995,2.75542
3,3.33209
3.005,4.07167
3.01,4.84334
3.015,5.56005
3.02,6.18595
3.025,6.71028
3.03,7.11628
3.035,7.36216
3.04,7.37049
3.045,7.03624
3.05,6.27747
3.055,5.11423
3.06,3.71147
3.065,2.33548
3.07,1.24283
3.075,0.57219
3.08,0.30289
3.085,0.29862
3.09,0.40214
3.095,0.51353
3.1,0.59902
3.105,0.63865
3.11,0.5733
3.115,0.31054
3.12,-0.19966
3.125,-0.86694
3.13,-1.41964
3.135,-1.47597
3.14,-0.7097
3.145,0.97259
3.15,3.33141
3.155,5.83045
3.16,7.83392
3.165,8.90667
3.17,9.04066
3.175,8.63139
3.18,8.20889
3.185,8.1192
3.19,8.37482
3.195,8.74872
3.2,8.99774
3.205,9.01624
3.21,8.82088
3.215,8.45084
3.22,7.92854
3.225,7.30813
3.23,6.71542
3.235,6.30701
3.24,6.18362
3.245,6.33706
3.25,6.67554
3.255,7.1089
3.26,7.6155
3.265,8.21507
3.27,8.87005
3.275,9.42772
3.28,9.67811
3.285,9.48315
3.29,8.87245
3.295,8.0451
3.3,7.28862
3.305,6.86405
3.31,6.91113
3.315,7.40452
3.32,8.15278
3.325,8.82404
3.33,9.01615
3.335,8.39522
3.34,6.85856
3.345,4.61088
3.35,2.08445
3.355,-0.2425
3.36,-2.00839
3.365,-3.04836
3.37,-3.40768
3.375,-3.30295
3.38,-3.01471
3.385,-2.74076
3.39,-2.51826
3.395,-2.29131
3.4,-2.05414
3.405,-1.9177
3.41,-2.03963
3.415,-2.50186
3.42,-3.24731
3.425,-4.10669
3.43,-4.87456
3.435,-5.37841
3.44,-5.5125
3.445,-5.24412
3.45,-4.60555
3.455,-3.67588
3.46,-2.56833
3.465,-1.43769
3.47,-0.47871
3.475,0.13071
3.48,0.32454
3.485,0.20369
3.49,-0.00116
3.495,-0.03457
3.5,0.27275
3.505,0.931
3.51,1.77641
3.515,2.52786
3.52,2.90877
3.525,2.78264
3.53,2.22398
3.535,1.4802
3.54,0.8454
3.545,0.51292
3.55,0.48533
3.555,0.59556
3.56,0.62707
3.565,0.45532
3.57,0.12276
3.575,-0.19473
3.58,-0.3136
3.585,-0.19065
3.59,0.01287
3.595,0.02729
3.6,-0.31727
3.605,-0.93758
3.61,-1.53735
3.615,-1.81069
3.62,-1.64208
3.625,-1.15699
3.63,-0.60576
3.635,-0.17207
3.64,0.16857
3.645,0.64316
3.65,1.5154
3.655,2.86905
3.66,4.51081
3.665,6.07754
3.67,7.25977
3.675,7.95922
3.68,8.27672
3.685,8.38541
3.69,8.41776
3.695,8.43096
3.7,8.42671
3.705,8.38776
3.71,8.31265
3.715,8.21385
3.72,8.05726
3.725,7.70689
3.73,6.976
3.735,5.78456
3.74,4.29695
3.745,2.91442
3.75,2.10706
3.755,2.17969
3.76,3.10704
3.765,4.53836
3.77,5.9673
3.775,6.94952
3.78,7.23907
3.785,6.82175
3.79,5.89835
3.795,4.81927
3.8,3.92527
3.805,3.33646
3.81,2.85471
3.815,2.10352
3.82,0.823
3.825,-0.91751
3.83,-2.75643
3.835,-4.2778
3.84,-5.25648
3.845,-5.75319
3.85,-6.0329
3.855,-6.37879
3.86,-6.90985
3.865,-7.50952
3.87,-7.92081
3.875,-7.9512
3.88,-7.63199
3.885,-7.19911
3.89,-6.90938
3.895,-6.85358
3.9,-6.9339
3.905,-7.02589
3.91,-7.16854
3.915,-7.58916
3.92,-8.52393
3.925,-9.99643
3.93,-11.75345
3.935,-13.40555
3.94,-14.65479
3.945,-15.44509
3.95,-15.93034
3.955,-16.28413
3.96,-16.50854
3.965,-16.41268
3.97,-15.77672
3.975,-14.54022
3.98,-12.8448
3.985,-10.92323
3.99,-8.97384
3.995,-7.13012
4,-5.49051
4.005,-4.11617
4.01,-3.00076
4.015,-2.09131
4.02,-1.35886
4.025,-0.82654
4.03,-0.52447
4.035,-0.44788
4.04,-0.57002
4.045,-0.85803
4.05,-1.23771
4.055,-1.55766
4.06,-1.63662
4.065,-1.37582
4.07,-0.83133
4.075,-0.18016
4.08,0.39182
4.085,0.79784
4.09,1.07652
4.095,1.322
4.1,1.58727
4.105,1.8487
4.11,2.04152
4.115,2.0997
4.12,1.96225
4.125,1.58895
4.13,1.01963
4.135,0.41814
4.14,0.0217
4.145,0.01067
4.15,0.39443
4.155,1.00116
4.16,1.59299
4.165,2.02903
4.17,2.33848
4.175,2.64833
4.18,3.06372
4.185,3.62442
4.19,4.34786
4.195,5.28757
4.2,6.54389
4.205,8.19527
4.21,10.17074
4.215,12.16914
4.22,13.7524
4.225,14.60098
4.23,14.72929
4.235,14.46187
4.24,14.19903
4.245,14.1819
4.25,14.40985
4.255,14.69695
4.26,14.77682
4.265,14.39256
4.27,13.35794
4.275,11.60224
4.28,9.21399
4.285,6.47347
4.29,3.82317
4.295,1.72475
4.3,0.43746
4.305,-0.12972
4.31,-0.3423
4.315,-0.57009
4.32,-0.93984
4.325,-1.29965
4.33,-1.37515
4.335,-0.96122
4.34,-0.03464
4.345,1.22986
4.35,2.51432
4.355,3.46255
4.36,3.82421
4.365,3.59684
4.37,3.06961
4.375,2.69218
4.38,2.82803
4.385,3.55919
4.39,4.66316
4.395,5.75885
4.4,6.53937
4.405,6.98032
4.41,7.40657
4.415,8.35255
4.42,10.27331
4.425,13.27709
4.43,17.04872
4.435,21.00371
4.44,24.55734
4.445,27.33438
4.45,29.21475
4.455,30.23716
4.46,30.46846
4.465,29.93851
4.47,28.66475
4.475,26.71217
4.48,24.21028
4.485,21.2967
4.49,18.04612
4.495,14.48414
4.5,10.70107
4.505,6.93445
4.51,3.47005
4.515,0.40228
4.52,-2.4981
4.525,-5.61762
4.53,-9.14999
4.535,-12.87944
4.54,-16.27302
4.545,-18.76256
4.55,-19.98683
4.555,-19.88783
4.56,-18.6872
4.565,-16.77621
4.57,-14.54466
4.575,-12.23163
4.58,-9.88462
4.585,-7.40874
4.59,-4.62732
4.595,-1.3457
4.6,2.53259
4.605,6.86716
4.61,11.24937
4.615,15.15075
4.62,18.15375
4.625,20.1012
4.63,21.09389
4.635,21.3706
4.64,21.13194
4.645,20.39359
4.65,18.99247
4.655,16.7918
4.66,13.92321
4.665,10.81656
4.67,7.96338
4.675,5.62201
4.68,3.70726
4.685,1.92182
4.69,-0.00356
4.695,-2.13789
4.7,-4.32914
4.705,-6.30193
4.71,-7.79751
4.715,-8.6929
4.72,-9.0513
4.725,-9.08494
4.73,-9.0597
4.735,-9.18997
4.74,-9.55996
4.745,-10.10884
4.75,-10.69612
4.755,-11.19422
4.76,-11.53029
4.765,-11.67415
4.77,-11.63057
4.775,-11.4481
4.78,-11.1928
4.785,-10.87555
4.79,-10.413
4.795,-9.69474
4.8,-8.70994
4.805,-7.60947
4.81,-6.64051
4.815,-6.01358
4.82,-5.81158
4.825,-5.99113
4.83,-6.43678
4.835,-7.00362
4.84,-7.53547
4.845,-7.89858
4.85,-8.05322
4.855,-8.11645
4.86,-8.34253
4.865,-9.00879
4.87,-10.27601
4.875,-12.10586
4.88,-14.26549
4.885,-16.40296
4.89,-18.16551
4.895,-19.32286
4.9,-19.83532
4.905,-19.82091
4.91,-19.44589
4.915,-18.82004
4.92,-17.95849
4.925,-16.80853
4.93,-15.30702
4.935,-13.44382
4.94,-11.30901
4.945,-9.08432
4.95,-6.95982
4.955,-5.0369
4.96,-3.31938
4.965,-1.80196
4.97,-0.53933
4.975,0.39331
4.98,0.9927
4.985,1.36195
4.99,1.65863
4.995,2.00409
5,2.39871
5.005,2.68021
5.01,2.58241
5.015,1.90578
5.02,0.68131
5.025,-0.83662
5.03,-2.36167
5.035,-3.76889
5.04,-5.09952
5.045,-6.38204
5.05,-7.46246
5.055,-8.02072
5.06,-7.75628
5.065,-6.57304
5.07,-4.6292
5.075,-2.25557
5.08,0.18417
5.085,2.43781
5.09,4.46481
5.095,6.41303
5.1,8.43903
5.105,10.48881
5.11,12.24495
5.115,13.33062
5.12,13.63397
5.125,13.49644
5.13,13.59538
5.135,14.56968
5.14,16.63324
5.145,19.45271
5.15,22.37858
5.155,24.84944
5.16,26.68684
5.165,28.12296
5.17,29.57483
5.175,31.2879
5.18,33.05762
5.185,34.24155
5.19,34.09206
5.195,32.19029
5.2,28.6933
5.205,24.26367
5.21,19.75443
5.215,15.8255
5.22,12.67462
5.225,10.01952
5.23,7.35399
5.235,4.33699
5.24,1.06204
5.245,-1.99724
5.25,-4.34764
5.255,-5.87329
5.26,-6.95204
5.265,-8.20329
5.27,-10.06576
5.275,-12.50369
5.28,-15.02654
5.285,-16.98948
5.29,-17.94996
5.295,-17.84226
5.3,-16.91556
5.305,-15.56119
5.31,-14.15903
5.315,-12.97707
5.32,-12.12168
5.325,-11.55759
5.33,-11.19231
5.335,-10.95987
5.34,-10.84523
5.345,-10.85692
5.35,-10.98327
5.355,-11.14953
5.36,-11.19155
5.365,-10.87629
5.37,-9.98297
5.375,-8.40989
5.38,-6.2385
5.385,-3.71333
5.39,-1.15989
5.395,1.10864
5.4,2.86718
5.405,4.01984
5.41,4.58396
5.415,4.63745
5.42,4.29758
5.425,3.7487
5.43,3.24471
5.435,3.02615
5.44,3.19912
5.445,3.67611
5.45,4.22419
5.455,4.57994
5.46,4.55066
5.465,4.03822
5.47,2.98471
5.475,1.31238
5.48,-1.06642
5.485,-4.17706
5.49,-7.92143
5.495,-12.0769
5.5,-16.34465
5.505,-20.40244
5.51,-23.91882
5.515,-26.5396
5.52,-27.915
5.525,-27.80054
5.53,-26.1637
5.535,-23.20232
5.54,-19.26322
5.545,-14.73273
5.55,-9.97322
5.555,-5.31491
5.56,-1.04853
5.565,2.62937
5.57,5.69429
5.575,8.31366
5.58,10.74518
5.585,13.14077
5.59,15.39437
5.595,17.19482
5.6,18.28644
5.605,18.72531
5.61,18.902
5.615,19.31232
5.62,20.25874
5.625,21.68165
5.63,23.19724
5.635,24.2862
5.64,24.51675
5.645,23.70477
5.65,21.9686
5.655,19.66995
5.66,17.24646
5.665,14.99226
5.67,12.91642
5.675,10.78844
5.68,8.33295
5.685,5.42402
5.69,2.17015
5.695,-1.11932
5.7,-4.05434
5.705,-6.32645
5.71,-7.83404
5.715,-8.68179
5.72,-9.05121
5.725,-9.06059
5.73,-8.74413
5.735,-8.14583
5.74,-7.39379
5.745,-6.65346
5.75,-6.01163
5.755,-5.42335
5.76,-4.77609
5.765,-4.0045
5.77,-3.16293
5.775,-2.41997
5.78,-1.98689
5.785,-2.01067
5.79,-2.48942
5.795,-3.2731
5.8,-4.14885
5.805,-4.93497
5.81,-5.51583
5.815,-5.82802
5.82,-5.84605
5.825,-5.57752
5.83,-5.05004
5.835,-4.30878
5.84,-3.46347
5.845,-2.74351
5.85,-2.44001
5.855,-2.70006
5.86,-3.33791
5.865,-3.87559
5.87,-3.82491
5.875,-2.9998
5.88,-1.63441
5.885,-0.24876
5.89,0.62678
5.895,0.69672
5.9,-0.00873
5.905,-1.22052
5.91,-2.62147
5.915,-4.01882
5.92,-5.40063
5.925,-6.85734
5.93,-8.43605
5.935,-10.03329
5.94,-11.39726
5.945,-12.22794
5.95,-12.29435
5.955,-11.50307
5.96,-9.92585
5.965,-7.81135
5.97,-5.54354
5.975,-3.51484
5.98,-1.99162
5.985,-1.07883
5.99,-0.7688
5.995,-0.97599
6,-1.52624
6.005,-2.15589
6.01,-2.55831
6.015,-2.45254
6.02,-1.64552
6.025,-0.09062
6.03,2.07578
6.035,4.58378
6.04,7.18661
6.045,9.81101
6.05,12.52798
6.055,15.3146
6.06,17.8106
6.065,19.34036
6.07,19.26448
6.075,17.41052
6.08,14.21784
6.085,10.47035
6.09,6.8546
6.095,3.67048
6.1,0.80399
6.105,-2.11486
6.11,-5.4496
6.115,-9.27475
6.12,-13.22973
6.125,-16.64311
6.13,-18.88818
6.135,-19.7508
6.14,-19.56815
6.145,-19.05944
6.15,-18.98457
6.155,-19.8496
6.16,-21.78617
6.165,-24.60216
6.17,-27.94062
6.175,-31.47063
6.18,-35.01769
6.185,-38.56065
6.19,-42.11392
6.195,-45.60749
6.2,-48.86069
6.205,-51.63802
6.21,-53.70669
6.215,-54.85201
6.22,-54.88139
6.225,-53.67141
6.23,-51.26154
6.235,-47.92521
6.24,-44.13009
6.245,-40.37572
6.25,-37.01096
6.255,-34.15895
6.26,-31.77251
6.265,-29.74055
6.27,-27.97367
6.275,-26.45364
6.28,-25.25412
6.285,-24.5423
6.29,-24.55746
6.295,-25.52578
6.3,-27.48862
6.305,-30.13941
6.31,-32.84702
6.315,-34.93278
6.32,-36.03526
6.325,-36.28994
6.33,-36.19319
6.335,-36.26814
6.34,-36.77644
6.345,-37.65373
6.35,-38.67609
6.355,-39.70969
6.36,-40.84032
6.365,-42.2804
6.37,-44.15985
6.375,-46.41351
6.38,-48.84403
6.385,-51.23835
6.39,-53.40556
6.395,-55.15373
6.4,-56.30507
6.405,-56.77423
6.41,-56.6321
6.415,-56.07943
6.42,-55.34245
6.425,-54.5751
6.43,-53.84583
6.435,-53.20813
6.44,-52.77232
6.445,-52.69629
6.45,-53.09557
6.455,-53.94353
6.46,-55.03226
6.465,-56.02681
6.47,-56.59566
6.475,-56.54625
6.48,-55.88015
6.485,-54.74986
6.49,-53.38483
6.495,-52.04827
6.5,-50.99457
6.505,-50.36661
6.51,-50.07482
6.515,-49.79756
6.52,-49.1636
6.525,-47.98595
6.53,-46.35588
6.535,-44.5557
6.54,-42.9069
6.545,-41.65922
6.55,-40.92715
6.555,-40.6451
6.56,-40.55634
6.565,-40.28037
6.57,-39.45741
6.575,-37.89132
6.58,-35.61298
6.585,-32.8677
6.59,-30.05967
6.595,-27.63355
6.6,-25.88946
6.605,-24.84375
